Shifted Time (s),AxialRotation Angle IMU (degrees)
95.001,7.92533230239613
95.011,7.936056415447871
95.021,7.944948242384577
95.031,7.9550577826463655
95.04,7.962969035673681
95.05,7.9700240009073156
95.061,7.975429677788416
95.071,7.983090065758466
95.081,7.986478164259255
95.09,7.996024972732875
95.10000000000001,8.015268490621722
95.11,8.043039717368474
95.12100000000001,8.075931652416191
95.131,8.104918295208098
95.141,8.125372645187946
95.15,8.137101701799676
95.16,8.147791464487584
95.17,8.151158932696266
95.181,8.152511105870595
95.191,8.152213983455798
95.2,8.150764564897454
95.21000000000001,8.14315284964145
95.22,8.13553883713409
95.23,8.127922526821852
95.241,8.113167918151625
95.251,8.098227010570504
95.26,8.084685803526003
95.27,8.06852029646597
95.28,8.051132488838562
95.291,8.032340380092414
95.301,8.014947969676356
95.31,7.997552257039615
95.32000000000001,7.9771052416316595
95.33,7.956045922902418
95.34,7.945964300302017
95.351,7.946606373281044
95.35900000000001,7.960056141290329
95.37,7.9935616037809964
95.38,8.031030760204462
95.39,8.072157610012438
95.4,8.106572152656891
95.411,8.138726387590104
95.419,8.160938314264737
95.43,8.184375932133708
95.44,8.204761240650292
95.45,8.225754239268078
95.46000000000001,8.242474927440899
95.46900000000001,8.253581304622884
95.48,8.2602323702685
95.49000000000001,8.269016123832504
95.5,8.277797564769955
95.51,8.281086692536256
95.521,8.293767506587137
95.529,8.304738006378638
95.54,8.314059191367116
95.55,8.325879061009278
95.56,8.340136614762171
95.57000000000001,8.351951852083157
95.57900000000001,8.366326772429963
95.589,8.378137375260685
95.60000000000001,8.39012866003377
95.61,8.402544626207956
95.62,8.418008273242439
95.629,8.43401860059667
95.639,8.456787607730465
95.649,8.477124294104026
95.66,8.50183965917779
95.67,8.527041702412612
95.68,8.551631423269633
95.68900000000001,8.57420682121029
95.699,8.599401895696392
95.709,8.624594646190078
95.72,8.651980072153743
95.73,8.682658173050205
95.739,8.711260948342558
95.749,8.74376439749421
95.759,8.775045519968968
95.77,8.806445315230906
95.78,8.83467178274447
95.79,8.862895921974378
95.799,8.885445732385701
95.809,8.910615213443858
95.819,8.94188236461467
95.83,8.970584185364267
95.84,8.998796675159165
95.849,9.025177833466149
95.85900000000001,9.050945659752358
95.869,9.073061153485156
95.879,9.09638431413228
95.89,9.122388141161768
95.898,9.142536634042042
95.909,9.173903792241855
95.919,9.202707615230175
95.929,9.22480910247639
95.93900000000001,9.240198253450167
95.95,9.254792067621572
95.959,9.275666544461025
95.96900000000001,9.30262868343927
95.979,9.332028484027338
95.989,9.361425945696677
96.0,9.38941706791894
96.008,9.410027850166209
96.019,9.43265729191085
96.029,9.445585392625485
96.039,9.457291151783064
96.049,9.47082456885685
96.06,9.480024643320405
96.068,9.48989337464753
96.07900000000001,9.498417762312332
96.089,9.506451805789325
96.099,9.51387350455331
96.10900000000001,9.5231228580795
96.11800000000001,9.53078386584341
96.128,9.536978527320906
96.139,9.540120841988116
96.149,9.542650809321533
96.159,9.54090842879804
96.168,9.542518699894845
96.178,9.540161622089439
96.18900000000001,9.527199194859612
96.199,9.51020741768367
96.209,9.488943290040101
96.21900000000001,9.462796811407843
96.22800000000001,9.432568981266176
96.238,9.396667799094676
96.249,9.348810264373203
96.259,9.292784376581935
96.269,9.225166135201583
96.278,9.160348539713176
96.288,9.085405589598128
96.298,9.003150284337904
96.309,8.894239623414729
96.319,8.787589606310705
96.32900000000001,8.674837232508597
96.33800000000001,8.574887501491474
96.348,8.456640412742793
96.358,8.33534096574596
96.369,8.199587159985278
96.379,8.07523299494492
96.388,7.963193470109782
96.398,7.834574584965004
96.408,7.710823338995648
96.418,7.588899731687617
96.429,7.451789762527097
96.438,7.3413854310003615
96.44800000000001,7.21884473659421
96.458,7.086551678795994
96.468,6.939006257092635
96.479,6.752923470972211
96.489,6.578543319922366
96.498,6.412153803431764
96.508,6.2145989209892685
96.518,6.010951672083492
96.528,5.810342056204185
96.539,5.592048072841388
96.547,5.429123721485128
96.558,5.189364001625613
96.568,4.958874912754537
96.578,4.707643454362327
96.58800000000001,4.4307996259409155
96.599,4.0957924269825945
96.607,3.829437856979404
96.61800000000001,3.438754915423517
96.628,3.0722716018092213
96.638,2.6789559156286913
96.648,2.2612478563768317
96.657,1.848418423546748
96.668,1.3047906166327778
96.678,0.7797554351312364
96.688,0.230327878535606
96.69800000000001,-0.34044205365788427
96.70700000000001,-0.8734693619530636
96.717,-1.491194046853383
96.72800000000001,-2.1931261088640577
96.738,-2.854145548485823
96.748,-3.5444373662236694
96.758,-4.251801562578026
96.767,-4.909412138052647
96.777,-5.66678109314891
96.788,-6.520318428367082
96.798,-7.318552144209631
96.808,-8.136908241176462
96.81700000000001,-8.89331471976753
96.827,-9.749475580482372
96.837,-10.614788823822604
96.848,-11.573643450285322
96.858,-12.459691460371065
96.86800000000001,-13.36038185457747
96.877,-14.182655633400984
96.887,-15.105300797342924
96.897,-16.034038346898964
96.908,-17.059303282565338
96.918,-17.992925604840636
96.927,-18.835515314219915
96.937,-19.784392411198695
96.947,-20.737531896274945
96.958,-21.788295769941705
96.968,-22.751200032695735
96.977,-23.617948685030214
96.98700000000001,-24.58390772744014
96.997,-25.56449916041726
97.007,-26.548142984457733
97.018,-27.63313120005217
97.028,-28.631419807695107
97.037,-29.533300807877378
97.047,-30.534034201090442
97.057,-31.535989987828167
97.06700000000001,-32.544038168580336
97.078,-33.64915974383678
97.086,-34.448316714088946
97.09700000000001,-35.54875707982838
97.107,-36.54523484154145
97.117,-37.53500499972087
97.127,-38.518067554852855
97.138,-39.59503250742935
97.147,-40.47115485793587
97.157,-41.437154606860396
97.167,-42.39583675469286
97.177,-43.349031301919055
97.188,-44.3824152490249
97.196,-45.123542596497785
97.20700000000001,-46.14552434482516
97.217,-47.06519849448977
97.227,-47.96780504598011
97.23700000000001,-48.862483999779805
97.24600000000001,-49.65082635637307
97.256,-50.51502011624378
97.267,-51.458542279877165
97.277,-52.29591084775729
97.287,-53.12231182036653
97.297,-53.94322519818666
97.306,-54.665719981702146
97.316,-55.46163817139475
97.327,-56.31731776774509
97.337,-57.08397077123597
97.34700000000001,-57.843306182347646
97.35600000000001,-58.51643000156032
97.366,-59.24833022935392
97.376,-59.96255286621001
97.387,-60.73574691260641
97.397,-61.42619436902362
97.407,-62.09347423593882
97.416,-62.666730513832
97.426,-63.28279520318085
97.437,-63.9419753044622
97.447,-64.52572481815443
97.45700000000001,-65.0844767447339
97.46600000000001,-65.56225508467702
97.476,-66.06979183845988
97.486,-66.56087100655981
97.497,-67.06579058945127
97.507,-67.5111445876104
97.516,-67.88686600151146
97.526,-68.29197483162892
97.536,-68.67513607843802
97.546,-69.02781974241196
97.557,-69.38988582402396
97.56700000000001,-69.7017143237479
97.57600000000001,-69.96220524205606
97.586,-70.23196857942082
97.596,-70.48405433631487
97.60600000000001,-70.71418251320944
97.617,-70.9528541105756
97.626,-71.13487712888457
97.636,-71.30831256860671
97.646,-71.4719904302126
97.656,-71.61799071417164
97.667,-71.761425420953
97.677,-71.87389055102594
97.686,-71.95001610485883
97.696,-72.01187608291977
97.706,-72.05178848567664
97.71600000000001,-72.06914331359684
97.727,-72.07107756714734
97.735,-72.06502324679488
97.74600000000001,-72.04616135300583
97.756,-72.00803588624618
97.766,-71.9522328469815
97.776,-71.87875223567727
97.785,-71.79410805279832
97.795,-71.68221229880928
97.806,-71.5412979741746
97.816,-71.39647707935794
97.82600000000001,-71.23885861482302
97.836,-71.08185258103327
97.845,-70.93850697845122
97.855,-70.77784580753945
97.866,-70.60072306876037
97.876,-70.44250676257539
97.886,-70.28551288944624
97.895,-70.1493164498336
97.905,-70.00451744419831
97.916,-69.85423587300093
97.926,-69.7277417367012
97.936,-69.61466003575896
97.946,-69.51012077063373
97.955,-69.41838994178431
97.965,-69.31812554966925
97.976,-69.20609459474676
97.986,-69.10522507747447
97.99600000000001,-69.0098379983099
98.005,-68.93128635771023
98.015,-68.8493241561317
98.025,-68.77590439403065
98.036,-68.69742707186296
98.046,-68.63132219008398
98.055,-68.57528274914881
98.065,-68.51955274951223
98.075,-68.46443519162835
98.08500000000001,-68.41968007595099
98.096,-68.3888364029336
98.10600000000001,-68.37274617302916
98.11500000000001,-68.36940738669026
98.125,-68.37588204436912
98.135,-68.39028914651774
98.146,-68.42116769358753
98.156,-68.4544796860296
98.165,-68.4978001242944
98.175,-68.55794700883206
98.185,-68.62785634009262
98.19500000000001,-68.70690811852532
98.206,-68.79748734457914
98.21600000000001,-68.8814240187028
98.22500000000001,-68.95987714134438
98.235,-69.0432087129517
98.245,-69.12532273397247
98.255,-69.19341920485351
98.266,-69.25249812604181
98.274,-69.28267149798359
98.285,-69.312913321125
98.295,-69.32674959591185
98.305,-69.34973832278948
98.315,-69.38918950220292
98.324,-69.4396771345971
98.334,-69.51755322041654
98.345,-69.62292876010517
98.355,-69.73128975410691
98.36500000000001,-69.84941320286495
98.376,-69.98632210682209
98.384,-70.08140246642097
98.395,-70.22032928210373
98.405,-70.35248255431236
98.415,-70.49012828348836
98.425,-70.63204647007268
98.434,-70.76433511450651
98.444,-70.90930821723012
98.455,-71.06903977868322
98.465,-71.20913779930561
98.47500000000001,-71.34008827953636
98.485,-71.46860121981405
98.494,-71.58060062057726
98.504,-71.6993684822638
98.515,-71.83161480531106
98.525,-71.94428759015636
98.535,-72.04416283723626
98.544,-72.12489054698722
98.554,-72.21074071984512
98.56400000000001,-72.29537335624536
98.575,-72.38470145662285
98.58500000000001,-72.46141902141241
98.59400000000001,-72.52185505104825
98.604,-72.60039754596437
98.614,-72.66980250659446
98.625,-72.74304993337154
98.635,-72.80635982672862
98.645,-72.86296218709805
98.654,-72.90365801491217
98.664,-72.95112531060272
98.674,-72.99859507460107
98.685,-73.04368630733816
98.69500000000001,-73.08323100924471
98.70400000000001,-73.11954718075086
98.714,-73.16092682228631
98.724,-73.21023893428062
98.73400000000001,-73.26138351716261
98.745,-73.31856757136069
98.755,-73.364837097303
98.764,-73.40610909541724
98.774,-73.4462835661308
98.784,-73.48890050987058
98.794,-73.53090992706299
98.805,-73.5820698181345
98.81400000000001,-73.61951118351067
98.824,-73.66274802361693
98.834,-73.70964733887837
98.84400000000001,-73.75898912971977
98.855,-73.8088193965655
98.863,-73.8449941398396
98.874,-73.90555435996572
98.884,-73.9719760573673
98.894,-74.0365702324672
98.904,-74.09750688568784
98.915,-74.16076101745159
98.923,-74.19743862817998
98.934,-74.24259171829442
98.944,-74.27853828821603
98.95400000000001,-74.31753733836533
98.964,-74.35653886916236
98.973,-74.38413788102704
98.983,-74.4170443743788
98.994,-74.44410634963648
99.004,-74.46116780721877
99.014,-74.47518174754373
99.024,-74.48858817102925
99.033,-74.49754507809266
99.043,-74.50912646915089
99.054,-74.52211234462038
99.06400000000001,-74.52455870491733
99.074,-74.52029755045723
99.083,-74.50676688165535
99.093,-74.4951906989265
99.104,-74.47263700268519
99.114,-74.44399579334541
99.124,-74.40925707132092
99.133,-74.36994483702495
99.143,-74.3254510908705
99.153,-74.27912983327025
99.164,-74.22708906463654
99.174,-74.17773278538112
99.184,-74.12166899591548
99.193,-74.06755769665051
99.203,-74.00661888799672
99.21300000000001,-73.94385257036421
99.224,-73.87639374416275
99.23400000000001,-73.81180240980157
99.24300000000001,-73.7544095676896
99.253,-73.68738321823551
99.263,-73.62096936184733
99.273,-73.5539479989331
99.284,-73.47443712990005
99.294,-73.40376075515536
99.303,-73.34089287510545
99.313,-73.26840149015649
99.32300000000001,-73.19408260071441
99.334,-73.10854520718482
99.34400000000001,-73.02935130997275
99.35300000000001,-72.96484890948307
99.363,-72.89358000612015
99.373,-72.81744360028762
99.383,-72.73886969238913
99.394,-72.65468928282749
99.404,-72.57490037200557
99.413,-72.50273596032557
99.423,-72.42539204818945
99.433,-72.3468306359988
99.443,-72.27254172415482
99.45400000000001,-72.18569231305798
99.462,-72.1132324031089
99.473,-72.00425599470756
99.483,-71.8927770882535
99.49300000000001,-71.76667068414602
99.503,-71.61922678278401
99.512,-71.4587343845655
99.522,-71.25153548988845
99.533,-70.99031209915069
99.543,-70.7129982127488
99.553,-70.3954368310801
99.56400000000001,-70.00410195453966
99.572,-69.68825358352439
99.583,-69.2063717184291
99.593,-68.72297035964812
99.60300000000001,-68.19506150757627
99.613,-67.62690516260821
99.622,-67.08833232513621
99.632,-66.47079099555353
99.643,-65.7769761742536
99.653,-65.12834986162744
99.663,-64.4620360580684
99.673,-63.772554763966106
99.682,-63.129722979713016
99.69200000000001,-62.384756705699125
99.703,-61.54204994231585
99.71300000000001,-60.755628689951656
99.723,-59.955189948997955
99.732,-59.224017719842045
99.742,-58.39797400287304
99.752,-57.551802798480914
99.763,-56.59776910705079
99.773,-55.71014292897343
99.782,-54.89557126463343
99.792,-53.971980114417946
99.802,-53.02765147871375
99.813,-51.97570835790775
99.82300000000001,-51.01248475238366
99.833,-50.04073366252891
99.842,-49.16032408872606
99.852,-48.17637803136001
99.86200000000001,-47.18511449081537
99.873,-46.084225467476855
99.883,-45.07162696172739
99.892,-44.14732797394859
99.902,-43.103634504523626
99.912,-42.048973553835275
99.922,-40.99004512226694
99.933,-39.81605421019664
99.943,-38.736400818009564
99.952,-37.75284294608341
99.962,-36.643924594798904
99.97200000000001,-35.51305876453648
99.982,-34.35719545567722
99.99300000000001,-33.07254866859646
100.001,-32.1270564036768
100.012,-30.81491466129482
100.022,-29.613331441827306
100.032,-28.39711074565456
100.043,-27.051448573149553
100.051,-26.05913692469299
100.062,-24.69267880065932
100.072,-23.446588201423182
100.08200000000001,-22.201110127361204
100.092,-20.960514578850194
100.10300000000001,-19.604802556260744
100.111,-18.627626059971217
100.122,-17.302774090353786
100.132,-16.110968647780908
100.142,-14.929535732628537
100.152,-13.7584653452661
100.161,-12.71789148606814
100.171,-11.58646615540557
100.182,-10.361564353651488
100.19200000000001,-9.273434081174933
100.202,-8.200556338349202
100.212,-7.140481125541536
100.221,-6.209128443123783
100.23100000000001,-5.195398291464426
100.242,-4.102643670933957
100.252,-3.122458581900675
100.262,-2.1495960247311867
100.271,-1.280814999795341
100.281,-0.3414875074598589
100.292,0.6667414519067352
100.302,1.5530138779394058
100.312,2.409403770269639
100.321,3.159633128533428
100.331,3.9690679523646644
100.34100000000001,4.749230241397688
100.352,5.579023995266926
100.36200000000001,6.3043012136093255
100.372,7.008235896059122
100.381,7.630038042254281
100.391,8.297997651831114
100.401,8.938514724425502
100.412,9.622741259676989
100.422,10.223613257221164
100.431,10.748814716697984
100.441,11.31737163774578
100.45100000000001,11.862756020003243
100.461,12.390447863109065
100.47200000000001,12.961986166704774
100.482,13.478702930428629
100.491,13.93584015392267
100.501,14.429991836827664
100.511,14.906450978784171
100.522,15.39279257943557
100.532,15.80644663842254
100.541,16.15381615538897
100.551,16.51929512997776
100.561,16.87806156183234
100.571,17.219145450596187
100.58200000000001,17.56193279591473
100.59,17.781419597431643
100.601,18.03700485479245
100.611,18.24575856764282
100.62100000000001,18.429509735628404
100.631,18.591918358395247
100.642,18.76633543559032
100.65,18.893614966860785
100.661,19.061316951853584
100.671,19.20785539021677
100.681,19.367201281598092
100.691,19.50764462564643
100.7,19.610767422010376
100.71000000000001,19.695105670339334
100.721,19.768225370282913
100.73100000000001,19.81962852149133
100.741,19.84968912361505
100.751,19.86877717630504
100.76,19.891208679212525
100.771,19.909986631989124
100.781,19.901017034286845
100.791,19.863384885758204
100.801,19.81416018605592
100.81,19.76195093483324
100.82000000000001,19.684061131743633
100.831,19.584100776441105
100.84100000000001,19.49401586857974
100.851,19.40148840781442
100.86,19.31249239379996
100.87,19.205329826191825
100.88,19.077424704646056
100.891,18.914397028818335
100.901,18.745026798365856
100.911,18.565904012945023
100.92,18.402813672213487
100.93,18.227945775828736
100.94,18.059785323449127
100.95100000000001,17.88064931473248
100.961,17.71919374933829
100.97,17.576394626925257
100.98,17.421033947153035
100.99000000000001,17.266890709681647
101.001,17.112557914171596
101.011,16.98522956028355
101.021,16.868268647678434
101.03,16.766611176018046
101.04,16.649035144964195
101.05,16.523526554179526
101.061,16.387955403326345
101.071,16.263661692068283
101.08,16.157599420068486
101.09,16.05038058699101
101.10000000000001,15.956569192500295
101.11,15.868855236261219
101.12100000000001,15.772846717938606
101.129,15.70732363719831
101.14,15.611980993706162
101.15,15.526086787128449
101.16,15.438970017132153
101.17,15.35307068338428
101.181,15.255033785552731
101.18900000000001,15.186567323305379
101.2,15.10059229631093
101.21000000000001,15.026872704238016
101.22,14.956810546756088
101.23,14.892235823534584
101.239,14.83662253424366
101.25,14.770764678553686
101.26,14.716552256135314
101.27,14.669647266659885
101.28,14.627009709798825
101.291,14.58595758522425
101.299,14.556974892608498
101.31,14.509878631624572
101.32000000000001,14.473940801945659
101.33,14.43861040324554
101.34,14.400837435198124
101.349,14.370989897477964
101.35900000000001,14.339921789759915
101.37,14.310916111719303
101.38,14.285932863031762
101.39,14.261557043373243
101.399,14.243765652420274
101.409,14.224874689849624
101.419,14.209031155338623
101.43,14.198798048564862
101.44,14.191489369206376
101.45,14.186618116941517
101.459,14.18472329144915
101.46900000000001,14.190206892408451
101.48,14.204105919499032
101.49000000000001,14.224834372400888
101.5,14.255310250794421
101.509,14.285784554360493
101.519,14.317475282780345
101.529,14.34550343573561
101.54,14.372125012908425
101.55,14.392228013981168
101.56,14.411108438636706
101.569,14.428400286558233
101.57900000000001,14.437515557429316
101.589,14.433818250933916
101.60000000000001,14.410121366756359
101.61,14.390568904581514
101.619,14.37436786409444
101.629,14.352980244980602
101.639,14.335860046925893
101.649,14.321177269616518
101.66,14.301490912739203
101.668,14.29192497598095
101.679,14.276930459029362
101.68900000000001,14.268337361572332
101.699,14.259741683298188
101.709,14.249313423895634
101.72,14.23766358305392
101.729,14.229669160462588
101.739,14.222893155811656
101.749,14.218554568791545
101.759,14.212993399093047
101.77,14.210713646407388
101.778,14.212823310426167
101.789,14.217248390841458
101.799,14.221426887345721
101.809,14.219502799631861
101.819,14.217576127393091
101.83,14.219977870323033
101.83800000000001,14.229880028115735
101.849,14.236973600465662
101.85900000000001,14.244186587067665
101.869,14.248956987617069
101.879,14.250064801809629
101.888,14.250255029341526
101.898,14.248307669909305
101.909,14.248675723209875
101.919,14.255263188940509
101.929,14.257578066798903
101.938,14.264343356483158
101.94800000000001,14.25995305769178
101.959,14.23817617012362
101.96900000000001,14.200850693477806
101.979,14.15559262745405
101.989,14.102401971752256
101.998,14.058112726072968
102.008,14.007356890117029
102.019,13.946668463585535
102.029,13.891647446180352
102.039,13.845763837603283
102.048,13.80420663755688
102.058,13.75648784574396
102.068,13.712426461867956
102.07900000000001,13.660434485632472
102.089,13.616977916741856
102.099,13.578398754900547
102.108,13.549452999813658
102.11800000000001,13.522448651186549
102.128,13.497271708725098
102.139,13.466054172135456
102.149,13.437212041124221
102.158,13.40880231539852
102.168,13.368374994665876
102.178,13.330995078634333
102.18900000000001,13.292394567012133
102.199,13.264759459508264
