Shifted Time (s),AxialRotation Angle IMU (degrees)
95.003,-2.7683772130574735
95.013,-2.7578873037640323
95.02199999999999,-2.742395722557606
95.032,-2.7294664693263853
95.04299999999999,-2.718367543958456
95.053,-2.7072689463416952
95.063,-2.7016606763638396
95.072,-2.6971507339124154
95.082,-2.697643118874776
95.092,-2.696915831138069
95.103,-2.695212870589215
95.113,-2.692656237114992
95.123,-2.691319930601892
95.132,-2.6868119509362804
95.142,-2.6842562980043034
95.152,-2.6829209716919338
95.163,-2.6825619718849922
95.173,-2.6763472984691665
95.182,-2.670193951329904
95.192,-2.667029930352477
95.202,-2.665086235422081
95.213,-2.6647288664236073
95.223,-2.6640058232417143
95.233,-2.658403105760965
95.242,-2.6528007138657053
95.252,-2.6508586474401854
95.262,-2.6483069063684885
95.273,-2.650635490534539
95.283,-2.653564399822125
95.292,-2.657287634114814
95.30199999999999,-2.660827193295991
95.312,-2.6649770772489414
95.322,-2.6672972858566433
95.333,-2.6743138190019917
95.341,-2.672984676567725
95.352,-2.671960858436313
95.362,-2.666362364490137
95.372,-2.6625941946113487
95.382,-2.6563863486820347
95.393,-2.6473118265840916
95.401,-2.6406166281992545
95.41199999999999,-2.6302007534091145
95.422,-2.6136242020950253
95.432,-2.586077974138264
95.442,-2.5542620694199365
95.451,-2.529460487820987
95.462,-2.4962432292221433
95.472,-2.453448293504098
95.482,-2.3984636805471675
95.492,-2.3270093902316757
95.503,-2.233425422437858
95.511,-2.1555097770456033
95.52199999999999,-2.048506453934825
95.532,-1.9502234529850648
95.542,-1.8385307740759163
95.55199999999999,-1.6981784170868965
95.56099999999999,-1.5614293818968776
95.571,-1.4021776683849327
95.582,-1.2287802764300861
95.592,-1.0530692059107236
95.602,-0.8645484567054267
95.611,-0.6921250286926295
95.621,-0.5042149217505094
95.631,-0.3205751357566009
95.642,-0.1190086705890695
95.652,0.060970473874831566
95.66199999999999,0.23911929775738705
95.67099999999999,0.40769780118178567
95.681,0.5992659842709714
95.692,0.8082118471478239
95.702,1.002829389936075
95.712,1.192566612759
95.721,1.36004551574019
95.731,1.5375820990033706
95.741,1.707198362672889
95.752,1.8926683068725199
95.762,2.056793931726906
95.77199999999999,2.224579237360217
95.78099999999999,2.377791223897488
95.791,2.5419158914634963
95.801,2.717010240183277
95.812,2.9085062701818916
95.822,3.0781199815850484
95.831,3.2368113745181204
95.841,3.4082544491068085
95.851,3.577867205477416
95.861,3.7480896437558546
95.872,3.9462937640682885
95.88,4.114925566541272
95.891,4.368129051301797
95.901,4.62188021847591
95.911,4.8994110681914
95.92099999999999,5.175111600574623
95.932,5.475932815753638
95.941,5.723522713855032
95.951,5.9803222950063635
95.961,6.243831559336003
95.971,6.503680506971572
95.982,6.77901313804095
95.99,6.977889452672686
96.001,7.2277344509955395
96.011,7.442462133137486
96.021,7.638899499228078
96.03099999999999,7.829236549395867
96.042,8.050909283770748
96.05,8.201487702481575
96.06099999999999,8.375540805658275
96.071,8.509166593430841
96.081,8.607432065929164
96.091,8.678257223283433
96.1,8.719508065624202
96.11,8.743982593082023
96.121,8.742968805787672
96.131,8.719272703872136
96.141,8.680336287466648
96.151,8.620059556702707
96.16,8.540573511711745
96.17099999999999,8.38932015262568
96.181,8.199772479576179
96.191,7.979124492695471
96.201,7.740796192116146
96.21,7.50765157797004
96.22,7.21871265038983
96.231,6.858853409508699
96.241,6.497963855458869
96.251,6.118783988373718
96.26,5.760510808386576
96.27,5.3398603156309825
96.28,4.878359510239487
96.291,4.357524392346995
96.301,3.867972962086606
96.31099999999999,3.335741219593761
96.32,2.8369851650016558
96.33,2.248652798445147
96.34,1.6499501200593998
96.351,0.9667971299800742
96.361,0.3351738283413089
96.37,-0.2585247847204831
96.38,-0.9279587090693016
96.39,-1.6138529445708238
96.401,-2.3996264910873437
96.411,-3.122721348483967
96.42099999999999,-3.856786516622554
96.42999999999999,-4.521829995368232
96.44,-5.271755784583869
96.45,-6.013751884132143
96.461,-6.811605293875276
96.471,-7.539572013677363
96.48,-8.196382043399877
96.49,-8.944479382904806
96.5,-9.7187970320561
96.51,-10.50957499071471
96.521,-11.386575258741612
96.529,-12.038451835999235
96.53999999999999,-12.938926722349072
96.55,-13.753485917653139
96.56,-14.566215421771698
96.57,-15.378945234564407
96.581,-16.273382355894668
96.589,-16.916964785620273
96.6,-17.801337523602697
96.61,-18.606748569702816
96.62,-19.406679923779848
96.63,-20.210871585692352
96.639,-20.93189255530188
96.64999999999999,-21.827673832466765
96.66,-22.63979641704742
96.67,-23.45374930890216
96.67999999999999,-24.282332507888754
96.691,-25.272693013868818
96.699,-25.862134826697975
96.71,-26.66066694623578
96.72,-27.373401372341128
96.73,-28.080646104871313
96.74,-28.779361143683168
96.749,-29.410934488636016
96.759,-30.113300139586926
96.77,-30.873598096392193
96.78,-31.555844358910257
96.78999999999999,-32.220410926996394
96.79899999999999,-32.807534800509
96.809,-33.4586919793044
96.819,-34.10740946323872
96.83,-34.816064252167635
96.84,-35.44222234594851
96.85,-36.062280744435796
96.859,-36.60330844748673
96.869,-37.18128745495659
96.88,-37.79939176670002
96.89,-38.34262138257338
96.89999999999999,-38.88463130243047
96.90899999999999,-39.35432652612749
96.919,-39.85487705351885
96.929,-40.3383478844589
96.94,-40.854506018801686
96.95,-41.302617456402274
96.96,-41.74462919711362
96.969,-42.1309052407906
96.979,-42.541207587286664
96.989,-42.9234602364552
97.0,-43.32425218814924
97.01,-43.670535442222764
97.01899999999999,-43.959135998527906
97.029,-44.26333985691887
97.039,-44.551694017247705
97.04899999999999,-44.82358847936659
97.06,-45.104317243128854
97.068,-45.291330308385945
97.079,-45.52846667499048
97.089,-45.729022342794636
97.099,-45.924088311649875
97.109,-46.11366458140748
97.12,-46.30921115191948
97.129,-46.46391302303656
97.139,-46.63703019460974
97.149,-46.80648766649022
97.15899999999999,-46.96496543852816
97.17,-47.133684510574724
97.178,-47.25338088247978
97.189,-47.4200985540938
97.199,-47.568827525266975
97.209,-47.71328679584891
97.219,-47.84981636568907
97.23,-48.001102234637486
97.238,-48.101776402543116
97.249,-48.239653869255505
97.259,-48.35728463462394
97.26899999999999,-48.47430569849713
97.279,-48.58949706072434
97.288,-48.69810572115413
97.298,-48.8132976796352
97.309,-48.931717936015744
97.319,-49.0316704901443
97.329,-49.13344334186866
97.339,-49.237656491037036
97.348,-49.32760993749705
97.359,-49.43329368109643
97.369,-49.52653772168283
97.379,-49.611852059103526
97.389,-49.69228669320557
97.398,-49.763026623836225
97.408,-49.84102185084242
97.419,-49.92122037407078
97.429,-49.98763619336805
97.439,-50.0491723085804
97.448,-50.09412871955428
97.458,-50.141035426135645
97.468,-50.17757242817029
97.479,-50.209471725503796
97.489,-50.2356493179817
97.499,-50.25267720544917
97.508,-50.25921438775129
97.518,-50.26039286473297
97.52799999999999,-50.26096163623898
97.539,-50.253966702114006
97.54899999999999,-50.240506062202485
97.55799999999999,-50.22674071634867
97.568,-50.20352066439654
97.578,-50.172380906189964
97.588,-50.14368144157259
97.599,-50.115227270387784
97.609,-50.08225839247881
97.618,-50.03995580768882
97.628,-49.98259751586083
97.638,-49.92462951683764
97.649,-49.85928281046194
97.65899999999999,-49.793995396576086
97.66799999999999,-49.72919427502212
97.678,-49.653547445642
97.688,-49.57790090827748
97.698,-49.496764662770154
97.709,-49.39720970896121
97.717,-49.32424204669222
97.728,-49.23273967580411
97.738,-49.15038459613779
97.748,-49.07290980753402
97.758,-49.003355309833466
97.76899999999999,-48.93667010287644
97.777,-48.892000186503346
97.788,-48.845434560554565
97.798,-48.81369122487011
97.80799999999999,-48.79230817928987
97.818,-48.76483542365345
97.827,-48.734067957800335
97.838,-48.690858781569865
97.848,-48.64386689480124
97.858,-48.58834529733358
97.868,-48.52733398900584
97.879,-48.45930996965657
97.887,-48.40488323912444
97.898,-48.339543797247714
97.908,-48.27426364386445
97.91799999999999,-48.20959377881275
97.928,-48.14553420193022
97.937,-48.091171913054424
97.947,-48.02162291202267
97.958,-47.95024619867229
97.968,-47.90082777284031
97.978,-47.84835963436383
97.987,-47.80442078307951
97.997,-47.753173218823974
98.007,-47.698265941433675
98.018,-47.64165295074492
98.02799999999999,-47.58430624659368
98.038,-47.51963982881569
98.047,-47.45430069724656
98.057,-47.37683485172157
98.067,-47.29265929207603
98.078,-47.1904310181446
98.088,-47.092836029762424
98.097,-47.003351326763934
98.107,-46.90210690898359
98.117,-46.79781277625571
98.128,-46.68754492841448
98.138,-46.59605136529357
98.148,-46.50516808672691
98.157,-46.42007709254781
98.167,-46.32980438258951
98.17699999999999,-46.24319195668533
98.188,-46.15438681466803
98.198,-46.06838495637065
98.207,-45.98823638162551
98.217,-45.90467509026499
98.227,-45.827214082121266
98.237,-45.75341335702641
98.248,-45.680031914812005
98.256,-45.62854375530978
98.267,-45.5598598783512
98.277,-45.49825028376755
98.28699999999999,-45.43359097139023
98.297,-45.367711941050175
98.30799999999999,-45.300371192578375
98.317,-45.24931372580538
98.327,-45.19868554056171
98.337,-45.151097636677584
98.347,-45.09986001398317
98.358,-45.045940672308205
98.366,-45.00323961148254
98.377,-44.95467783133573
98.387,-44.91929133169712
98.39699999999999,-44.88695511239598
98.407,-44.85949917326129
98.41799999999999,-44.818319514121825
98.426,-44.784884134806056
98.437,-44.74638903514232
98.447,-44.70673421495861
98.457,-44.65914967408292
98.467,-44.61278541234288
98.476,-44.57105642956615
98.486,-44.52835272558
98.497,-44.48382030021167
98.507,-44.444167153288234
98.517,-44.405124284636756
98.527,-44.364251694084146
98.536,-44.322524381457306
98.54599999999999,-44.27616234658287
98.557,-44.22291958928729
98.567,-44.17351810939701
98.577,-44.13325690673796
98.586,-44.09976598113611
98.596,-44.06133533241724
98.607,-44.016134960407
98.617,-43.96977486493086
98.627,-43.93012504581443
98.636,-43.897184502882986
98.646,-43.85814523596182
98.65599999999999,-43.81788624487602
98.667,-43.77671352945042
98.67699999999999,-43.73584508950988
98.687,-43.69863692487885
98.696,-43.66954103538186
98.706,-43.63965342084312
98.716,-43.61037608108667
98.727,-43.583296015936334
98.737,-43.555239225215985
98.746,-43.53437070874925
98.756,-43.51118446635967
98.766,-43.48860849787056
98.776,-43.46603280310508
98.78699999999999,-43.43962538188619
98.797,-43.421930234036765
98.806,-43.40106335937953
98.816,-43.38275875773713
98.826,-43.36689442893195
98.837,-43.352555372786234
98.847,-43.34096158912203
98.856,-43.328880077761134
98.866,-43.31606683852522
98.876,-43.304473871235686
98.886,-43.29593117571366
98.89699999999999,-43.28830375178011
98.905,-43.274881599255856
98.916,-43.25920271796151
98.926,-43.24212110771737
98.93599999999999,-43.22930976834361
98.946,-43.218328699660255
98.957,-43.20600590148703
98.965,-43.19502537364345
98.976,-43.18270311594882
98.986,-43.174773128222284
98.996,-43.16989341028286
99.006,-43.16684396194945
99.015,-43.170129783040785
99.026,-43.17926987337536
99.036,-43.18536123277157
99.04599999999999,-43.18840286104752
99.056,-43.18352475802128
99.067,-43.18729792351065
99.075,-43.18559235733339
99.086,-43.186022059307064
99.096,-43.18784502924908
99.106,-43.19759826697675
99.116,-43.201251772307295
99.125,-43.20125554505767
99.135,-43.20186958504477
99.146,-43.20162989208519
99.15599999999999,-43.1998044659953
99.166,-43.196759306591254
99.175,-43.19347041368904
99.185,-43.19956578710459
99.195,-43.20993142665348
99.206,-43.22444433215125
99.216,-43.22749050341309
99.226,-43.23297694025418
99.235,-43.23791564248957
99.245,-43.24706260993407
99.255,-43.253769842402335
99.266,-43.260232339708935
99.276,-43.25414010166819
99.285,-43.23658012809434
99.295,-43.21340841880132
99.30499999999999,-43.19084697360292
99.316,-43.1570727923127
99.326,-43.10342187474419
99.336,-43.01867122071064
99.345,-42.92922083002524
99.355,-42.80118070250088
99.365,-42.68350083795063
99.376,-42.556492236186756
99.386,-42.401012897022134
99.395,-42.231994820268504
99.405,-42.01553600573784
99.41499999999999,-41.77468745324227
99.425,-41.51676916259261
99.43599999999999,-41.21605013360073
99.444,-40.98849836607721
99.455,-40.65491185983379
99.465,-40.33662461468059
99.475,-40.00919763042886
99.485,-39.67872090688805
99.496,-39.30153144386907
99.505,-38.95361424118135
99.515,-38.53959829863452
99.52499999999999,-38.11643261603888
99.535,-37.68351719320247
99.54599999999999,-37.19431602993545
99.554,-36.830671126045765
99.565,-36.33074548134343
99.575,-35.85210109563609
99.585,-35.358816968733315
99.595,-34.835653100442144
99.606,-34.23578249057199
99.614,-33.77652313892979
99.625,-33.10958604532513
99.635,-32.485213209564414
99.645,-31.858400631456696
99.655,-31.22609831080762
99.664,-30.636175247425527
99.67399999999999,-29.974603441117694
99.685,-29.256022891689092
99.695,-28.59323159894894
99.705,-27.924340562701538
99.715,-27.26276978275405
99.724,-26.688211258912794
99.734,-26.071760990983897
99.745,-25.407510978771356
99.755,-24.79106122208301
99.765,-24.171561720722302
99.774,-23.62993547449566
99.78399999999999,-23.038486483208473
99.795,-22.39704074666409
99.80499999999999,-21.791572264669405
99.815,-21.170854037027013
99.824,-20.60343506354249
99.834,-19.972967344019494
99.844,-19.35102987826317
99.855,-18.685440666075337
99.865,-18.109853707261877
99.875,-17.5635270016244
99.884,-17.08501154896728
99.89399999999999,-16.562465349093877
99.904,-16.03626940180599
99.91499999999999,-15.437077706907699
99.925,-14.851122264200717
99.934,-14.31114707348837
99.944,-13.733122134572524
99.954,-13.164847447256403
99.964,-12.606333011340448
99.975,-11.994404826627859
99.985,-11.425520892919266
99.994,-10.914626210017044
100.004,-10.371962777722073
100.014,-9.831129595836622
100.02499999999999,-9.219873664160726
100.035,-8.67843098249502
100.044,-8.213635550640989
100.054,-7.717313368398694
100.064,-7.22221143556945
100.074,-6.741139751952137
100.085,-6.231833317347851
100.093,-5.860882131555307
100.104,-5.359628194375321
100.114,-4.921847505606275
100.124,-4.482237065048405
100.134,-4.0511668724995635
100.145,-3.5968619277597176
100.15299999999999,-3.2761522306272037
100.164,-2.848005780900058
100.17399999999999,-2.471816578377978
100.184,-2.102327622857962
100.194,-1.7352789141386729
100.203,-1.4192124520183031
100.213,-1.072284236294913
100.224,-0.6837172667651878
100.234,-0.3593595432279342
100.244,-0.08195206547949718
100.255,0.20198216668223068
100.263,0.3958571534607929
100.274,0.6563168950585649
100.28399999999999,0.8892133916789828
100.294,1.1160096435258413
100.304,1.3312256508024132
100.313,1.5260144137123899
100.323,1.7552499324595852
100.334,2.0076562072487816
100.344,2.2344512382834445
100.354,2.4399060257688294
100.363,2.6034095699092155
100.373,2.767403870909556
100.383,2.9161479289745804
100.39399999999999,3.057210744309705
100.404,3.169984317120296
100.414,3.26568764761173
100.423,3.3551107359896952
100.43299999999999,3.4471535824600172
100.443,3.5288261872288866
100.454,3.6081885505023568
100.464,3.659370672486859
100.473,3.703792553388858
100.483,3.735464193415074
100.493,3.767135592772325
100.504,3.7908257516677017
100.514,3.804816670308385
100.524,3.822467348901796
100.533,3.8257217876555396
100.54299999999999,3.8220319867773838
100.553,3.825041946475188
100.564,3.821230666957099
100.574,3.8151001484312665
100.583,3.8112253911060896
100.593,3.8038743951900167
100.603,3.7849331608916708
100.613,3.7507516884197134
100.624,3.708031977983213
100.632,3.6814100297911794
100.643,3.6594798440530196
100.65299999999999,3.647247420978153
100.663,3.6313547607761705
100.673,3.6166818636569475
100.684,3.5913957298305044
100.692,3.5735483595069404
100.703,3.536194752896471
100.713,3.500790910209688
100.723,3.4708768316570913
100.734,3.4469315174495962
100.742,3.4290829677980947
100.753,3.398438182913873
100.763,3.380103163008159
100.773,3.355667908292519
100.783,3.331232418978473
100.794,3.3106406952778635
100.80199999999999,3.2981587374025545
100.813,3.2721985455645473
100.823,3.247762119976188
100.833,3.230035460849731
100.843,3.2238985683977583
100.852,3.2337334428330315
100.862,3.247716084368439
100.873,3.245228493216971
100.883,3.2390906695918567
100.893,3.2323426137063107
100.90299999999999,3.2207143257737854
100.91199999999999,3.205851806007787
100.922,3.17837305462198
100.93299999999999,3.1470530718302805
100.943,3.1201838578465826
100.953,3.0896544128850847
100.962,3.0671047371601405
100.972,3.0377948308862486
100.983,3.0044606942779617
100.993,2.9769803275502387
101.003,2.953759730917991
101.012,2.9328559045965
101.02199999999999,2.903544848801197
101.032,2.8772735637474725
101.04299999999999,2.8459510496511067
101.053,2.8184693067278848
101.063,2.7976873351938094
101.072,2.7866641352649406
101.082,2.7725917071575252
101.092,2.7646190510878204
101.103,2.766152167272331
101.113,2.772199055927579
101.122,2.7787337172703146
101.132,2.782950151517351
101.142,2.7865563588856905
101.152,2.793212339592489
101.163,2.7860320938550993
101.173,2.7780576218909974
101.182,2.7763649239178023
101.192,2.7714400001532975
101.202,2.754924850815277
101.213,2.7269424761218057
101.223,2.6921368762909914
101.232,2.665747051541179
101.242,2.637651002090853
101.252,2.610164728158788
101.262,2.577798229963719
101.273,2.530366507724682
101.28099999999999,2.501289561660788
101.292,2.4612383919912393
101.30199999999999,2.42155099893572
101.312,2.3757633827136466
101.322,2.336685543544845
101.333,2.2986464816493077
101.341,2.2744481972470414
101.352,2.236408690558142
101.362,2.20891996180306
101.372,2.1832510112021435
101.382,2.1533218389761073
101.391,2.1186934453458512
101.401,2.072293830532399
101.41199999999999,2.017477994756836
101.422,1.9704679382405275
101.432,1.9283376612050462
101.442,1.891697163872115
101.451,1.867498446463466
101.462,1.8341535092011965
101.472,1.799952352307536
101.482,1.7669709760046581
101.492,1.7443493805151358
101.501,1.7289245660616066
101.511,1.714842532866924
101.52199999999999,1.6935632811540797
101.532,1.6807008111462758
101.542,1.6696681230668498
101.551,1.6668692171392716
101.56099999999999,1.65461609358715
101.571,1.6411427526341575
101.582,1.6366371945042115
101.592,1.6292634194212297
101.602,1.6188394276093208
101.611,1.6110982192927314
101.621,1.6061637946958465
101.631,1.6134191540431884
101.642,1.6149402975594618
101.652,1.620365225469467
101.661,1.6301819379982838
101.67099999999999,1.6404864353711415
101.681,1.6587207178134662
101.692,1.6870697855509431
101.702,1.7120036388093451
101.712,1.7332872778145665
101.721,1.7606617027926923
101.731,1.7904749139699039
101.741,1.8172379115726172
101.752,1.8489406958272985
101.762,1.8683932669605992
101.771,1.874913625199366
101.78099999999999,1.8766757707706045
101.791,1.8747877039015033
101.801,1.8692394248193371
101.812,1.866070933751561
101.82,1.8589342309258214
101.831,1.8430163165697826
101.841,1.8246571909113827
101.851,1.8123978541785037
101.861,1.7940383065993213
101.872,1.7613555484020937
101.88,1.7376335798151417
101.891,1.7069634010669272
101.901,1.6794630123862544
101.911,1.6446424140018592
101.92099999999999,1.6092116061428576
101.92999999999999,1.5778655890382844
101.941,1.5364583629174398
101.951,1.5052969280098387
101.961,1.477795284544845
101.971,1.450293432752146
101.982,1.4102273728615826
101.99,1.384063105103051
102.001,1.349364629706607
102.011,1.3157619469027253
102.021,1.2815490569216166
102.03099999999999,1.2473359599939167
102.03999999999999,1.2192816563502071
102.05,1.1881181462212826
102.06099999999999,1.1534184298381198
102.071,1.1185945074316779
102.081,1.089260379233253
102.091,1.0617560454743344
102.1,1.0353475063864677
102.11,1.0060127622014716
102.121,0.9780108131513298
102.131,0.9620856594680849
102.141,0.9577503013839975
102.14999999999999,0.9582237391314188
102.16,0.9648579729427962
102.17099999999999,0.9663680030507826
102.181,0.9650718296881333
102.191,0.9601254530878258
102.2,0.9589598734829481
